Voltage (V),Current (A),Brightness Current (A)
-4.010010E+00,-1.664800E-07,+9.06775091E-09
-4.032100E+00,-1.561310E-07,+5.16019322E-09
-4.054400E+00,-1.639170E-07,+1.11379251E-08
-4.076800E+00,-1.782250E-07,+7.39664645E-09
-4.099300E+00,-1.959850E-07,+4.82763511E-09
-4.122000E+00,-2.179180E-07,+1.21716265E-08
-4.144700E+00,-2.425120E-07,+9.59984388E-09
-4.167600E+00,-2.730170E-07,+5.25996065E-09
-4.190700E+00,-3.076920E-07,+6.65947599E-09
-4.213800E+00,-3.463870E-07,+1.39064713E-08
-4.237100E+00,-3.903970E-07,+1.38399597E-08
-4.260500E+00,-4.415510E-07,+1.32385838E-08
-4.284000E+00,-4.989480E-07,+1.41725178E-08
-4.307700E+00,-5.638960E-07,+2.05520907E-08
-4.331500E+00,-6.391070E-07,+2.20874006E-08
-4.355400E+00,-7.218860E-07,+1.97484086E-08
-4.379400E+00,-8.160510E-07,+2.42905980E-08
-4.403600E+00,-9.234760E-07,+2.92651130E-08
-4.428000E+00,-1.043980E-06,+3.58081936E-08
-4.452400E+00,-1.177370E-06,+3.67116431E-08
-4.477000E+00,-1.328030E-06,+4.20187162E-08
-4.501700E+00,-1.495510E-06,+5.01968742E-08
-4.526600E+00,-1.683290E-06,+5.58060208E-08
-4.551600E+00,-1.892560E-06,+6.38844114E-08
-4.576700E+00,-2.121580E-06,+6.97623758E-08
-4.602000E+00,-2.377560E-06,+7.38362126E-08
-4.627400E+00,-2.658350E-06,+8.82581489E-08
-4.653000E+00,-2.968870E-06,+9.93434190E-08
-4.678700E+00,-3.309870E-06,+1.07624116E-07
-4.704500E+00,-3.682870E-06,+1.26920800E-07
-4.730500E+00,-4.089870E-06,+1.30057931E-07
-4.756600E+00,-4.537040E-06,+1.48653472E-07
-4.782900E+00,-5.020440E-06,+1.66348334E-07
-4.809300E+00,-5.543420E-06,+1.90619533E-07
-4.835900E+00,-6.113040E-06,+1.98966741E-07
-4.862600E+00,-6.727470E-06,+2.20901719E-07
-4.889500E+00,-7.392380E-06,+2.45807550E-07
-4.916500E+00,-8.106280E-06,+2.72916578E-07
-4.943600E+00,-8.873470E-06,+2.97021498E-07
-4.970900E+00,-9.699930E-06,+3.22531475E-07
-4.998400E+00,-1.058720E-05,+3.52744379E-07
-5.026000E+00,-1.153470E-05,+3.89334084E-07
-5.053800E+00,-1.255060E-05,+4.22420844E-07
-5.081700E+00,-1.363390E-05,+4.65722680E-07
-5.109700E+00,-1.478860E-05,+4.96570215E-07
-5.138000E+00,-1.602500E-05,+5.37167246E-07
-5.166300E+00,-1.733370E-05,+5.76065459E-07
-5.194900E+00,-1.873280E-05,+6.27379174E-07
-5.223600E+00,-2.021770E-05,+6.79327521E-07
-5.252400E+00,-2.178950E-05,+7.37220344E-07
-5.281400E+00,-2.345490E-05,+7.87902198E-07
-5.310600E+00,-2.522390E-05,+8.44057405E-07
-5.339900E+00,-2.709430E-05,+9.10327921E-07
-5.369400E+00,-2.907230E-05,+9.77432604E-07
-5.399100E+00,-3.116600E-05,+1.04838110E-06
-5.428900E+00,-3.337460E-05,+1.12279652E-06
-5.458900E+00,-3.570590E-05,+1.20532636E-06
-5.489000E+00,-3.816600E-05,+1.28585530E-06
-5.519400E+00,-4.076240E-05,+1.37673512E-06
-5.549800E+00,-4.348310E-05,+1.46093329E-06
-5.580500E+00,-4.635920E-05,+1.56262678E-06
-5.611300E+00,-4.938470E-05,+1.66632671E-06
-5.642300E+00,-5.255900E-05,+1.77699928E-06
-5.673500E+00,-5.590430E-05,+1.88410239E-06
-5.704800E+00,-5.940350E-05,+2.00633135E-06
-5.736300E+00,-6.308590E-05,+2.13159767E-06
-5.768000E+00,-6.694630E-05,+2.25842979E-06
-5.799900E+00,-7.099870E-05,+2.39397770E-06
-5.831900E+00,-7.523300E-05,+2.53607147E-06
-5.864100E+00,-7.967580E-05,+2.68617434E-06
-5.896500E+00,-8.433560E-05,+2.84519254E-06
-5.929100E+00,-8.921050E-05,+3.00718436E-06
-5.961800E+00,-9.430340E-05,+3.17772016E-06
-5.994700E+00,-9.962990E-05,+3.36094304E-06
-6.027900E+00,-1.052200E-04,+3.53799144E-06
-6.061200E+00,-1.110480E-04,+3.73900895E-06
-6.094600E+00,-1.171100E-04,+3.94517004E-06
-6.128300E+00,-1.234760E-04,+4.16060949E-06
-6.162100E+00,-1.300950E-04,+4.37611823E-06
-6.196200E+00,-1.370330E-04,+4.61499749E-06
-6.230400E+00,-1.442630E-04,+4.85624345E-06
-6.264800E+00,-1.518010E-04,+5.10780980E-06
-6.299400E+00,-1.596600E-04,+5.36698619E-06
-6.334200E+00,-1.678710E-04,+5.64255769E-06
-6.369200E+00,-1.764280E-04,+5.92397113E-06
-6.404400E+00,-1.853540E-04,+6.22808444E-06
-6.439700E+00,-1.946340E-04,+6.53547344E-06
-6.475300E+00,-2.043290E-04,+6.86035500E-06
-6.511100E+00,-2.144240E-04,+7.19969175E-06
-6.547000E+00,-2.249250E-04,+7.54540530E-06
-6.583200E+00,-2.358890E-04,+7.90751119E-06
-6.619600E+00,-2.473110E-04,+8.29272157E-06
-6.656100E+00,-2.591820E-04,+8.68811376E-06
-6.692900E+00,-2.715750E-04,+9.09439168E-06
-6.729900E+00,-2.844770E-04,+9.52637635E-06
-6.767000E+00,-2.978720E-04,+9.97665726E-06
-6.804400E+00,-3.118660E-04,+1.04353851E-05
-6.842000E+00,-3.264350E-04,+1.09134069E-05
-6.879800E+00,-3.415890E-04,+1.14187096E-05
-6.917800E+00,-3.573750E-04,+1.19359954E-05
-6.956000E+00,-3.737760E-04,+1.24821916E-05
-6.994400E+00,-3.908520E-04,+1.30401105E-05
-7.033000E+00,-4.086330E-04,+1.36235006E-05
-7.071900E+00,-4.271710E-04,+1.42300949E-05
-7.110900E+00,-4.464220E-04,+1.48625983E-05
-7.150200E+00,-4.664730E-04,+1.55218088E-05
-7.189700E+00,-4.873550E-04,+1.62044897E-05
-7.229400E+00,-5.090690E-04,+1.69115775E-05
-7.269400E+00,-5.316820E-04,+1.76539858E-05
-7.309500E+00,-5.551630E-04,+1.84190329E-05
-7.349900E+00,-5.796680E-04,+1.92150939E-05
-7.390500E+00,-6.051150E-04,+2.00421383E-05
-7.431300E+00,-6.315780E-04,+2.08996615E-05
-7.472300E+00,-6.590950E-04,+2.17870014E-05
-7.513600E+00,-6.877370E-04,+2.27127019E-05
-7.555100E+00,-7.175470E-04,+2.36733570E-05
-7.596800E+00,-7.485500E-04,+2.46683986E-05
-7.638800E+00,-7.808370E-04,+2.57053758E-05
-7.681000E+00,-8.143930E-04,+2.67854858E-05
-7.723400E+00,-8.492980E-04,+2.79031582E-05
-7.766100E+00,-8.856870E-04,+2.90650664E-05
-7.809000E+00,-9.234740E-04,+3.02621620E-05
-7.852100E+00,-9.627840E-04,+3.15125418E-05
-7.895500E+00,-1.003681E-03,+3.28085624E-05
-7.939100E+00,-1.046211E-03,+3.41458811E-05
-7.982900E+00,-1.090610E-03,+3.55412258E-05
-8.027000E+00,-1.136580E-03,+3.69867479E-05
-8.071400E+00,-1.184540E-03,+3.84911660E-05
-8.115900E+00,-1.234280E-03,+4.00409895E-05
-8.160800E+00,-1.286170E-03,+4.16533422E-05
-8.205800E+00,-1.340050E-03,+4.33213512E-05
-8.251200E+00,-1.396230E-03,+4.50605388E-05
-8.296700E+00,-1.454530E-03,+4.68594899E-05
-8.342600E+00,-1.515380E-03,+4.87254819E-05
-8.388600E+00,-1.578490E-03,+5.06560734E-05
-8.435000E+00,-1.644320E-03,+5.26633888E-05
-8.481600E+00,-1.712770E-03,+5.47435816E-05
-8.528400E+00,-1.783960E-03,+5.68999662E-05
-8.575500E+00,-1.858120E-03,+5.91305334E-05
-8.622900E+00,-1.935290E-03,+6.14384565E-05
-8.670500E+00,-2.015550E-03,+6.38356548E-05
-8.718400E+00,-2.099230E-03,+6.63256978E-05
-8.766600E+00,-2.186340E-03,+6.89120968E-05
-8.815000E+00,-2.276940E-03,+7.15793546E-05
-8.863700E+00,-2.371340E-03,+7.43433036E-05
-8.912600E+00,-2.469560E-03,+7.72090765E-05
-8.961800E+00,-2.571860E-03,+8.01772135E-05
-9.011300E+00,-2.678510E-03,+8.32584619E-05
-9.061100E+00,-2.789610E-03,+8.64508208E-05
-9.111200E+00,-2.905540E-03,+8.97653726E-05
-9.161500E+00,-3.026090E-03,+9.31873269E-05
-9.212100E+00,-3.151760E-03,+9.67355148E-05
-9.263000E+00,-3.282790E-03,+1.00425930E-04
-9.314100E+00,-3.419190E-03,+1.04228788E-04
-9.365600E+00,-3.561820E-03,+1.08186258E-04
-9.417300E+00,-3.710330E-03,+1.12286623E-04
-9.469300E+00,-3.865140E-03,+1.16526906E-04
-9.521600E+00,-4.026790E-03,+1.21096632E-04
-9.574200E+00,-4.195600E-03,+1.25490838E-04
-9.627100E+00,-4.371480E-03,+1.30209838E-04
-9.680300E+00,-4.555320E-03,+1.35107796E-04
-9.733700E+00,-4.747060E-03,+1.40175727E-04
-9.787500E+00,-4.947540E-03,+1.45439980E-04
-9.841600E+00,-5.157020E-03,+1.50897073E-04
-9.895900E+00,-5.375520E-03,+1.56541940E-04
-9.950600E+00,-5.604200E-03,+1.62403055E-04
-1.000550E+01,-5.843000E-03,+1.68464626E-04
-1.006080E+01,-6.093280E-03,+1.74775768E-04
-1.011640E+01,-6.354720E-03,+1.81302160E-04
-1.017220E+01,-6.628020E-03,+1.88060927E-04
-1.022840E+01,-6.914510E-03,+1.95085927E-04
-1.028490E+01,-7.214380E-03,+2.02363435E-04
-1.034170E+01,-7.528650E-03,+2.09916555E-04
-1.039890E+01,-7.858250E-03,+2.17766288E-04
-1.045630E+01,-8.203200E-03,+2.25883322E-04
-1.051400E+01,-8.564580E-03,+2.34307951E-04
-1.057210E+01,-8.943730E-03,+2.43042350E-04
-1.063050E+01,-9.342190E-03,+2.52121440E-04
-1.068920E+01,-9.760450E-03,+2.61537808E-04
-1.074830E+01,-1.019898E-02,+2.71294595E-04
-1.080760E+01,-1.066490E-02,+2.81427088E-04
-1.086730E+01,-1.114450E-02,+2.91942837E-04
-1.092730E+01,-1.165450E-02,+3.02863038E-04
-1.098770E+01,-1.219230E-02,+3.14222222E-04
-1.104840E+01,-1.275510E-02,+3.25965890E-04
-1.110940E+01,-1.334860E-02,+3.38144030E-04
-1.117080E+01,-1.397570E-02,+3.50849756E-04
-1.123250E+01,-1.463430E-02,+3.63972158E-04
-1.129450E+01,-1.533110E-02,+3.77607491E-04
-1.135690E+01,-1.607170E-02,+3.91903961E-04
-1.141960E+01,-1.684840E-02,+4.06642810E-04
-1.148270E+01,-1.766480E-02,+4.21836399E-04
-1.154610E+01,-1.852230E-02,+4.37532201E-04
-1.160990E+01,-1.939900E-02,+4.53359116E-04
-1.167400E+01,-2.020590E-02,+4.68026955E-04
-1.173850E+01,-2.128340E-02,+4.86336290E-04
-1.180322E+01,-2.243150E-02,+5.04345772E-04
-1.186821E+01,-2.374590E-02,+5.27190149E-04
-1.192762E+01,-2.495790E-02,+5.47060008E-04
"-1.187325E+01
","-2.499970E-02
","+5.47621651E-04
"
